# Pulseq sequence file
# Created by MATLAB mr toolbox

# Created for Pulseq-CEST
# https://pulseq-cest.github.io/
# Created by: unknown
# Created at: 13-Feb-2021 11:03:38

[VERSION]
major 1
minor 3
revision 0

[DEFINITIONS]
B0 3 
B1cwpe 1.94716 
DCsat 0.947867 
M0_offset -1560 
Trec 3.5 
Trec_M0 3.5 
Tsat 0.834 
n_pulses 8 
num_meas 114 
offsets_ppm -1560 -14 -13.75 -13.5 -13.25 -13 -12.75 -12.5 -12.25 -12 -11.75 -11.5 -11.25 -11 -10.75 -10.5 -10.25 -10 -9.75 -9.5 -9.25 -9 -8.75 -8.5 -8.25 -8 -7.75 -7.5 -7.25 -7 -6.75 -6.5 -6.25 -6 -5.75 -5.5 -5.25 -5 -4.75 -4.5 -4.25 -4 -3.75 -3.5 -3.25 -3 -2.75 -2.5 -2.25 -2 -1.75 -1.5 -1.25 -1 -0.75 -0.5 -0.25 0 0.25 0.5 0.75 1 1.25 1.5 1.75 2 2.25 2.5 2.75 3 3.25 3.5 3.75 4 4.25 4.5 4.75 5 5.25 5.5 5.75 6 6.25 6.5 6.75 7 7.25 7.5 7.75 8 8.25 8.5 8.75 9 9.25 9.5 9.75 10 10.25 10.5 10.75 11 11.25 11.5 11.75 12 12.25 12.5 12.75 13 13.25 13.5 13.75 14 
seq_id_string APTw_3T_003_2uT_8block_DC95_834ms_braintumor 
td 0.001 0.01 
tp 0.1 

# Format of blocks:
#  #  D RF  GX  GY  GZ ADC EXT
[BLOCKS]
   1  1  0   0   0   0  0  0
   2  0  1   0   0   0  0  0
   3  2  0   0   0   0  0  0
   4  0  2   0   0   0  0  0
   5  3  0   0   0   0  0  0
   6  0  3   0   0   0  0  0
   7  2  0   0   0   0  0  0
   8  0  4   0   0   0  0  0
   9  3  0   0   0   0  0  0
  10  0  5   0   0   0  0  0
  11  2  0   0   0   0  0  0
  12  0  6   0   0   0  0  0
  13  3  0   0   0   0  0  0
  14  0  7   0   0   0  0  0
  15  2  0   0   0   0  0  0
  16  0  8   0   0   0  0  0
  17  0  0   1   1   1  0  0
  18  0  0   0   0   0  1  0
  19  1  0   0   0   0  0  0
  20  0  9   0   0   0  0  0
  21  2  0   0   0   0  0  0
  22  0 10   0   0   0  0  0
  23  3  0   0   0   0  0  0
  24  0 11   0   0   0  0  0
  25  2  0   0   0   0  0  0
  26  0 12   0   0   0  0  0
  27  3  0   0   0   0  0  0
  28  0 13   0   0   0  0  0
  29  2  0   0   0   0  0  0
  30  0 14   0   0   0  0  0
  31  3  0   0   0   0  0  0
  32  0 15   0   0   0  0  0
  33  2  0   0   0   0  0  0
  34  0 16   0   0   0  0  0
  35  0  0   1   1   1  0  0
  36  0  0   0   0   0  1  0
  37  1  0   0   0   0  0  0
  38  0 17   0   0   0  0  0
  39  2  0   0   0   0  0  0
  40  0 18   0   0   0  0  0
  41  3  0   0   0   0  0  0
  42  0 19   0   0   0  0  0
  43  2  0   0   0   0  0  0
  44  0 20   0   0   0  0  0
  45  3  0   0   0   0  0  0
  46  0 21   0   0   0  0  0
  47  2  0   0   0   0  0  0
  48  0 22   0   0   0  0  0
  49  3  0   0   0   0  0  0
  50  0 23   0   0   0  0  0
  51  2  0   0   0   0  0  0
  52  0 24   0   0   0  0  0
  53  0  0   1   1   1  0  0
  54  0  0   0   0   0  1  0
  55  1  0   0   0   0  0  0
  56  0 25   0   0   0  0  0
  57  2  0   0   0   0  0  0
  58  0 26   0   0   0  0  0
  59  3  0   0   0   0  0  0
  60  0 27   0   0   0  0  0
  61  2  0   0   0   0  0  0
  62  0 28   0   0   0  0  0
  63  3  0   0   0   0  0  0
  64  0 29   0   0   0  0  0
  65  2  0   0   0   0  0  0
  66  0 30   0   0   0  0  0
  67  3  0   0   0   0  0  0
  68  0 31   0   0   0  0  0
  69  2  0   0   0   0  0  0
  70  0 32   0   0   0  0  0
  71  0  0   1   1   1  0  0
  72  0  0   0   0   0  1  0
  73  1  0   0   0   0  0  0
  74  0 33   0   0   0  0  0
  75  2  0   0   0   0  0  0
  76  0 34   0   0   0  0  0
  77  3  0   0   0   0  0  0
  78  0 35   0   0   0  0  0
  79  2  0   0   0   0  0  0
  80  0 36   0   0   0  0  0
  81  3  0   0   0   0  0  0
  82  0 37   0   0   0  0  0
  83  2  0   0   0   0  0  0
  84  0 38   0   0   0  0  0
  85  3  0   0   0   0  0  0
  86  0 39   0   0   0  0  0
  87  2  0   0   0   0  0  0
  88  0 40   0   0   0  0  0
  89  0  0   1   1   1  0  0
  90  0  0   0   0   0  1  0
  91  1  0   0   0   0  0  0
  92  0 41   0   0   0  0  0
  93  2  0   0   0   0  0  0
  94  0 42   0   0   0  0  0
  95  3  0   0   0   0  0  0
  96  0 43   0   0   0  0  0
  97  2  0   0   0   0  0  0
  98  0 44   0   0   0  0  0
  99  3  0   0   0   0  0  0
 100  0 45   0   0   0  0  0
 101  2  0   0   0   0  0  0
 102  0 46   0   0   0  0  0
 103  3  0   0   0   0  0  0
 104  0 47   0   0   0  0  0
 105  2  0   0   0   0  0  0
 106  0 48   0   0   0  0  0
 107  0  0   1   1   1  0  0
 108  0  0   0   0   0  1  0
 109  1  0   0   0   0  0  0
 110  0 49   0   0   0  0  0
 111  2  0   0   0   0  0  0
 112  0 50   0   0   0  0  0
 113  3  0   0   0   0  0  0
 114  0 51   0   0   0  0  0
 115  2  0   0   0   0  0  0
 116  0 52   0   0   0  0  0
 117  3  0   0   0   0  0  0
 118  0 53   0   0   0  0  0
 119  2  0   0   0   0  0  0
 120  0 54   0   0   0  0  0
 121  3  0   0   0   0  0  0
 122  0 55   0   0   0  0  0
 123  2  0   0   0   0  0  0
 124  0 56   0   0   0  0  0
 125  0  0   1   1   1  0  0
 126  0  0   0   0   0  1  0
 127  1  0   0   0   0  0  0
 128  0 57   0   0   0  0  0
 129  2  0   0   0   0  0  0
 130  0 58   0   0   0  0  0
 131  3  0   0   0   0  0  0
 132  0 59   0   0   0  0  0
 133  2  0   0   0   0  0  0
 134  0 60   0   0   0  0  0
 135  3  0   0   0   0  0  0
 136  0 61   0   0   0  0  0
 137  2  0   0   0   0  0  0
 138  0 62   0   0   0  0  0
 139  3  0   0   0   0  0  0
 140  0 63   0   0   0  0  0
 141  2  0   0   0   0  0  0
 142  0 64   0   0   0  0  0
 143  0  0   1   1   1  0  0
 144  0  0   0   0   0  1  0
 145  1  0   0   0   0  0  0
 146  0 65   0   0   0  0  0
 147  2  0   0   0   0  0  0
 148  0 66   0   0   0  0  0
 149  3  0   0   0   0  0  0
 150  0 67   0   0   0  0  0
 151  2  0   0   0   0  0  0
 152  0 68   0   0   0  0  0
 153  3  0   0   0   0  0  0
 154  0 69   0   0   0  0  0
 155  2  0   0   0   0  0  0
 156  0 70   0   0   0  0  0
 157  3  0   0   0   0  0  0
 158  0 71   0   0   0  0  0
 159  2  0   0   0   0  0  0
 160  0 72   0   0   0  0  0
 161  0  0   1   1   1  0  0
 162  0  0   0   0   0  1  0
 163  1  0   0   0   0  0  0
 164  0 73   0   0   0  0  0
 165  2  0   0   0   0  0  0
 166  0 74   0   0   0  0  0
 167  3  0   0   0   0  0  0
 168  0 75   0   0   0  0  0
 169  2  0   0   0   0  0  0
 170  0 76   0   0   0  0  0
 171  3  0   0   0   0  0  0
 172  0 77   0   0   0  0  0
 173  2  0   0   0   0  0  0
 174  0 78   0   0   0  0  0
 175  3  0   0   0   0  0  0
 176  0 79   0   0   0  0  0
 177  2  0   0   0   0  0  0
 178  0 80   0   0   0  0  0
 179  0  0   1   1   1  0  0
 180  0  0   0   0   0  1  0
 181  1  0   0   0   0  0  0
 182  0 81   0   0   0  0  0
 183  2  0   0   0   0  0  0
 184  0 82   0   0   0  0  0
 185  3  0   0   0   0  0  0
 186  0 83   0   0   0  0  0
 187  2  0   0   0   0  0  0
 188  0 84   0   0   0  0  0
 189  3  0   0   0   0  0  0
 190  0 85   0   0   0  0  0
 191  2  0   0   0   0  0  0
 192  0 86   0   0   0  0  0
 193  3  0   0   0   0  0  0
 194  0 87   0   0   0  0  0
 195  2  0   0   0   0  0  0
 196  0 88   0   0   0  0  0
 197  0  0   1   1   1  0  0
 198  0  0   0   0   0  1  0
 199  1  0   0   0   0  0  0
 200  0 89   0   0   0  0  0
 201  2  0   0   0   0  0  0
 202  0 90   0   0   0  0  0
 203  3  0   0   0   0  0  0
 204  0 91   0   0   0  0  0
 205  2  0   0   0   0  0  0
 206  0 92   0   0   0  0  0
 207  3  0   0   0   0  0  0
 208  0 93   0   0   0  0  0
 209  2  0   0   0   0  0  0
 210  0 94   0   0   0  0  0
 211  3  0   0   0   0  0  0
 212  0 95   0   0   0  0  0
 213  2  0   0   0   0  0  0
 214  0 96   0   0   0  0  0
 215  0  0   1   1   1  0  0
 216  0  0   0   0   0  1  0
 217  1  0   0   0   0  0  0
 218  0 97   0   0   0  0  0
 219  2  0   0   0   0  0  0
 220  0 98   0   0   0  0  0
 221  3  0   0   0   0  0  0
 222  0 99   0   0   0  0  0
 223  2  0   0   0   0  0  0
 224  0 100   0   0   0  0  0
 225  3  0   0   0   0  0  0
 226  0 101   0   0   0  0  0
 227  2  0   0   0   0  0  0
 228  0 102   0   0   0  0  0
 229  3  0   0   0   0  0  0
 230  0 103   0   0   0  0  0
 231  2  0   0   0   0  0  0
 232  0 104   0   0   0  0  0
 233  0  0   1   1   1  0  0
 234  0  0   0   0   0  1  0
 235  1  0   0   0   0  0  0
 236  0 105   0   0   0  0  0
 237  2  0   0   0   0  0  0
 238  0 106   0   0   0  0  0
 239  3  0   0   0   0  0  0
 240  0 107   0   0   0  0  0
 241  2  0   0   0   0  0  0
 242  0 108   0   0   0  0  0
 243  3  0   0   0   0  0  0
 244  0 109   0   0   0  0  0
 245  2  0   0   0   0  0  0
 246  0 110   0   0   0  0  0
 247  3  0   0   0   0  0  0
 248  0 111   0   0   0  0  0
 249  2  0   0   0   0  0  0
 250  0 112   0   0   0  0  0
 251  0  0   1   1   1  0  0
 252  0  0   0   0   0  1  0
 253  1  0   0   0   0  0  0
 254  0 113   0   0   0  0  0
 255  2  0   0   0   0  0  0
 256  0 114   0   0   0  0  0
 257  3  0   0   0   0  0  0
 258  0 115   0   0   0  0  0
 259  2  0   0   0   0  0  0
 260  0 116   0   0   0  0  0
 261  3  0   0   0   0  0  0
 262  0 117   0   0   0  0  0
 263  2  0   0   0   0  0  0
 264  0 118   0   0   0  0  0
 265  3  0   0   0   0  0  0
 266  0 119   0   0   0  0  0
 267  2  0   0   0   0  0  0
 268  0 120   0   0   0  0  0
 269  0  0   1   1   1  0  0
 270  0  0   0   0   0  1  0
 271  1  0   0   0   0  0  0
 272  0 121   0   0   0  0  0
 273  2  0   0   0   0  0  0
 274  0 122   0   0   0  0  0
 275  3  0   0   0   0  0  0
 276  0 123   0   0   0  0  0
 277  2  0   0   0   0  0  0
 278  0 124   0   0   0  0  0
 279  3  0   0   0   0  0  0
 280  0 125   0   0   0  0  0
 281  2  0   0   0   0  0  0
 282  0 126   0   0   0  0  0
 283  3  0   0   0   0  0  0
 284  0 127   0   0   0  0  0
 285  2  0   0   0   0  0  0
 286  0 128   0   0   0  0  0
 287  0  0   1   1   1  0  0
 288  0  0   0   0   0  1  0
 289  1  0   0   0   0  0  0
 290  0 129   0   0   0  0  0
 291  2  0   0   0   0  0  0
 292  0 130   0   0   0  0  0
 293  3  0   0   0   0  0  0
 294  0 131   0   0   0  0  0
 295  2  0   0   0   0  0  0
 296  0 132   0   0   0  0  0
 297  3  0   0   0   0  0  0
 298  0 133   0   0   0  0  0
 299  2  0   0   0   0  0  0
 300  0 134   0   0   0  0  0
 301  3  0   0   0   0  0  0
 302  0 135   0   0   0  0  0
 303  2  0   0   0   0  0  0
 304  0 136   0   0   0  0  0
 305  0  0   1   1   1  0  0
 306  0  0   0   0   0  1  0
 307  1  0   0   0   0  0  0
[RF]
1      85.1528 1 2 100 -199258 0
2      85.1528 1 2 100 -199258 1.53812
3      85.1528 1 2 100 -199258 3.07625
4      85.1528 1 2 100 -199258 4.61437
5      85.1528 1 2 100 -199258 6.1525
6      85.1528 1 2 100 -199258 1.40743
7      85.1528 1 2 100 -199258 2.94556
8      85.1528 1 2 100 -199258 4.48368
9      85.1528 1 2 100 -1788.21 0
10      85.1528 1 2 100 -1788.21 1.12544
11      85.1528 1 2 100 -1788.21 2.25089
12      85.1528 1 2 100 -1788.21 3.37633
13      85.1528 1 2 100 -1788.21 4.50178
14      85.1528 1 2 100 -1788.21 5.62722
15      85.1528 1 2 100 -1788.21 0.46948
16      85.1528 1 2 100 -1788.21 1.59492
17      85.1528 1 2 100 -1756.28 0
18      85.1528 1 2 100 -1756.28 2.33954
19      85.1528 1 2 100 -1756.28 4.67909
20      85.1528 1 2 100 -1756.28 0.735447
21      85.1528 1 2 100 -1756.28 3.07499
22      85.1528 1 2 100 -1756.28 5.41453
23      85.1528 1 2 100 -1756.28 1.47089
24      85.1528 1 2 100 -1756.28 3.81044
25      85.1528 1 2 100 -1724.34 0
26      85.1528 1 2 100 -1724.34 3.55364
27      85.1528 1 2 100 -1724.34 0.824103
28      85.1528 1 2 100 -1724.34 4.37775
29      85.1528 1 2 100 -1724.34 1.64821
30      85.1528 1 2 100 -1724.34 5.20185
31      85.1528 1 2 100 -1724.34 2.47231
32      85.1528 1 2 100 -1724.34 6.02595
33      85.1528 1 2 100 -1692.41 0
34      85.1528 1 2 100 -1692.41 4.76774
35      85.1528 1 2 100 -1692.41 3.2523
36      85.1528 1 2 100 -1692.41 1.73686
37      85.1528 1 2 100 -1692.41 0.221419
38      85.1528 1 2 100 -1692.41 4.98916
39      85.1528 1 2 100 -1692.41 3.47372
40      85.1528 1 2 100 -1692.41 1.95828
41      85.1528 1 2 100 -1660.48 0
42      85.1528 1 2 100 -1660.48 5.98184
43      85.1528 1 2 100 -1660.48 5.6805
44      85.1528 1 2 100 -1660.48 5.37916
45      85.1528 1 2 100 -1660.48 5.07782
46      85.1528 1 2 100 -1660.48 4.77648
47      85.1528 1 2 100 -1660.48 4.47514
48      85.1528 1 2 100 -1660.48 4.17379
49      85.1528 1 2 100 -1628.55 0
50      85.1528 1 2 100 -1628.55 0.912758
51      85.1528 1 2 100 -1628.55 1.82552
52      85.1528 1 2 100 -1628.55 2.73827
53      85.1528 1 2 100 -1628.55 3.65103
54      85.1528 1 2 100 -1628.55 4.56379
55      85.1528 1 2 100 -1628.55 5.47655
56      85.1528 1 2 100 -1628.55 0.106123
57      85.1528 1 2 100 -1596.62 0
58      85.1528 1 2 100 -1596.62 2.12686
59      85.1528 1 2 100 -1596.62 4.25372
60      85.1528 1 2 100 -1596.62 0.0973894
61      85.1528 1 2 100 -1596.62 2.22425
62      85.1528 1 2 100 -1596.62 4.35111
63      85.1528 1 2 100 -1596.62 0.194779
64      85.1528 1 2 100 -1596.62 2.32164
65      85.1528 1 2 100 -1564.68 0
66      85.1528 1 2 100 -1564.68 3.34096
67      85.1528 1 2 100 -1564.68 0.398731
68      85.1528 1 2 100 -1564.68 3.73969
69      85.1528 1 2 100 -1564.68 0.797462
70      85.1528 1 2 100 -1564.68 4.13842
71      85.1528 1 2 100 -1564.68 1.19619
72      85.1528 1 2 100 -1564.68 4.53715
73      85.1528 1 2 100 -1532.75 0
74      85.1528 1 2 100 -1532.75 4.55506
75      85.1528 1 2 100 -1532.75 2.82693
76      85.1528 1 2 100 -1532.75 1.0988
77      85.1528 1 2 100 -1532.75 5.65386
78      85.1528 1 2 100 -1532.75 3.92573
79      85.1528 1 2 100 -1532.75 2.19761
80      85.1528 1 2 100 -1532.75 0.46948
81      85.1528 1 2 100 -1500.82 0
82      85.1528 1 2 100 -1500.82 5.76916
83      85.1528 1 2 100 -1500.82 5.25513
84      85.1528 1 2 100 -1500.82 4.7411
85      85.1528 1 2 100 -1500.82 4.22708
86      85.1528 1 2 100 -1500.82 3.71305
87      85.1528 1 2 100 -1500.82 3.19902
88      85.1528 1 2 100 -1500.82 2.68499
89      85.1528 1 2 100 -1468.89 0
90      85.1528 1 2 100 -1468.89 0.700073
91      85.1528 1 2 100 -1468.89 1.40015
92      85.1528 1 2 100 -1468.89 2.10022
93      85.1528 1 2 100 -1468.89 2.80029
94      85.1528 1 2 100 -1468.89 3.50036
95      85.1528 1 2 100 -1468.89 4.20044
96      85.1528 1 2 100 -1468.89 4.90051
97      85.1528 1 2 100 -1436.95 0
98      85.1528 1 2 100 -1436.95 1.91417
99      85.1528 1 2 100 -1436.95 3.82834
100      85.1528 1 2 100 -1436.95 5.74252
101      85.1528 1 2 100 -1436.95 1.3735
102      85.1528 1 2 100 -1436.95 3.28768
103      85.1528 1 2 100 -1436.95 5.20185
104      85.1528 1 2 100 -1436.95 0.832836
105      85.1528 1 2 100 -1405.02 0
106      85.1528 1 2 100 -1405.02 3.12827
107      85.1528 1 2 100 -1405.02 6.25654
108      85.1528 1 2 100 -1405.02 3.10163
109      85.1528 1 2 100 -1405.02 6.2299
110      85.1528 1 2 100 -1405.02 3.07499
111      85.1528 1 2 100 -1405.02 6.20326
112      85.1528 1 2 100 -1405.02 3.04835
113      85.1528 1 2 100 -1373.09 0
114      85.1528 1 2 100 -1373.09 4.34237
115      85.1528 1 2 100 -1373.09 2.40156
116      85.1528 1 2 100 -1373.09 0.460746
117      85.1528 1 2 100 -1373.09 4.80312
118      85.1528 1 2 100 -1373.09 2.86231
119      85.1528 1 2 100 -1373.09 0.921492
120      85.1528 1 2 100 -1373.09 5.26386
121      85.1528 1 2 100 -1341.16 0
122      85.1528 1 2 100 -1341.16 5.55647
123      85.1528 1 2 100 -1341.16 4.82976
124      85.1528 1 2 100 -1341.16 4.10305
125      85.1528 1 2 100 -1341.16 3.37633
126      85.1528 1 2 100 -1341.16 2.64962
127      85.1528 1 2 100 -1341.16 1.92291
128      85.1528 1 2 100 -1341.16 1.19619
129      85.1528 1 2 100 -1309.22 0
130      85.1528 1 2 100 -1309.22 0.487387
131      85.1528 1 2 100 -1309.22 0.974773
132      85.1528 1 2 100 -1309.22 1.46216
133      85.1528 1 2 100 -1309.22 1.94955
134      85.1528 1 2 100 -1309.22 2.43693
135      85.1528 1 2 100 -1309.22 2.92432
136      85.1528 1 2 100 -1309.22 3.41171
137      85.1528 1 2 100 -1277.29 0
138      85.1528 1 2 100 -1277.29 1.70149
139      85.1528 1 2 100 -1277.29 3.40297
140      85.1528 1 2 100 -1277.29 5.10446
141      85.1528 1 2 100 -1277.29 0.522761
142      85.1528 1 2 100 -1277.29 2.22425
143      85.1528 1 2 100 -1277.29 3.92573
144      85.1528 1 2 100 -1277.29 5.62722
145      85.1528 1 2 100 -1245.36 0
146      85.1528 1 2 100 -1245.36 2.91559
147      85.1528 1 2 100 -1245.36 5.83117
148      85.1528 1 2 100 -1245.36 2.46357
149      85.1528 1 2 100 -1245.36 5.37916
150      85.1528 1 2 100 -1245.36 2.01156
151      85.1528 1 2 100 -1245.36 4.92715
152      85.1528 1 2 100 -1245.36 1.55955
153      85.1528 1 2 100 -1213.43 0
154      85.1528 1 2 100 -1213.43 4.12969
155      85.1528 1 2 100 -1213.43 1.97619
156      85.1528 1 2 100 -1213.43 6.10587
157      85.1528 1 2 100 -1213.43 3.95237
158      85.1528 1 2 100 -1213.43 1.79888
159      85.1528 1 2 100 -1213.43 5.92856
160      85.1528 1 2 100 -1213.43 3.77506
161      85.1528 1 2 100 -1181.5 0
162      85.1528 1 2 100 -1181.5 5.34379
163      85.1528 1 2 100 -1181.5 4.40439
164      85.1528 1 2 100 -1181.5 3.46499
165      85.1528 1 2 100 -1181.5 2.52559
166      85.1528 1 2 100 -1181.5 1.58619
167      85.1528 1 2 100 -1181.5 0.646791
168      85.1528 1 2 100 -1181.5 5.99058
169      85.1528 1 2 100 -1149.56 0
170      85.1528 1 2 100 -1149.56 0.274701
171      85.1528 1 2 100 -1149.56 0.549402
172      85.1528 1 2 100 -1149.56 0.824103
173      85.1528 1 2 100 -1149.56 1.0988
174      85.1528 1 2 100 -1149.56 1.3735
175      85.1528 1 2 100 -1149.56 1.64821
176      85.1528 1 2 100 -1149.56 1.92291
177      85.1528 1 2 100 -1117.63 0
178      85.1528 1 2 100 -1117.63 1.4888
179      85.1528 1 2 100 -1117.63 2.9776
180      85.1528 1 2 100 -1117.63 4.4664
181      85.1528 1 2 100 -1117.63 5.9552
182      85.1528 1 2 100 -1117.63 1.16082
183      85.1528 1 2 100 -1117.63 2.64962
184      85.1528 1 2 100 -1117.63 4.13842
185      85.1528 1 2 100 -1085.7 0
186      85.1528 1 2 100 -1085.7 2.7029
187      85.1528 1 2 100 -1085.7 5.4058
188      85.1528 1 2 100 -1085.7 1.82552
189      85.1528 1 2 100 -1085.7 4.52842
190      85.1528 1 2 100 -1085.7 0.948133
191      85.1528 1 2 100 -1085.7 3.65103
192      85.1528 1 2 100 -1085.7 0.0707487
193      85.1528 1 2 100 -1053.77 0
194      85.1528 1 2 100 -1053.77 3.917
195      85.1528 1 2 100 -1053.77 1.55082
196      85.1528 1 2 100 -1053.77 5.46782
197      85.1528 1 2 100 -1053.77 3.10163
198      85.1528 1 2 100 -1053.77 0.735447
199      85.1528 1 2 100 -1053.77 4.65245
200      85.1528 1 2 100 -1053.77 2.28626
201      85.1528 1 2 100 -1021.83 0
202      85.1528 1 2 100 -1021.83 5.1311
203      85.1528 1 2 100 -1021.83 3.97902
204      85.1528 1 2 100 -1021.83 2.82693
205      85.1528 1 2 100 -1021.83 1.67485
206      85.1528 1 2 100 -1021.83 0.522761
207      85.1528 1 2 100 -1021.83 5.65386
208      85.1528 1 2 100 -1021.83 4.50178
209      85.1528 1 2 100 -989.901 0
210      85.1528 1 2 100 -989.901 0.062015
211      85.1528 1 2 100 -989.901 0.12403
212      85.1528 1 2 100 -989.901 0.186045
213      85.1528 1 2 100 -989.901 0.24806
214      85.1528 1 2 100 -989.901 0.310075
215      85.1528 1 2 100 -989.901 0.37209
216      85.1528 1 2 100 -989.901 0.434105
217      85.1528 1 2 100 -957.969 0
218      85.1528 1 2 100 -957.969 1.27611
219      85.1528 1 2 100 -957.969 2.55223
220      85.1528 1 2 100 -957.969 3.82834
221      85.1528 1 2 100 -957.969 5.10446
222      85.1528 1 2 100 -957.969 0.0973894
223      85.1528 1 2 100 -957.969 1.3735
224      85.1528 1 2 100 -957.969 2.64962
225      85.1528 1 2 100 -926.037 0
226      85.1528 1 2 100 -926.037 2.49021
227      85.1528 1 2 100 -926.037 4.98043
228      85.1528 1 2 100 -926.037 1.18746
229      85.1528 1 2 100 -926.037 3.67767
230      85.1528 1 2 100 -926.037 6.16789
231      85.1528 1 2 100 -926.037 2.37492
232      85.1528 1 2 100 -926.037 4.86513
233      85.1528 1 2 100 -894.104 0
234      85.1528 1 2 100 -894.104 3.70431
235      85.1528 1 2 100 -894.104 1.12544
236      85.1528 1 2 100 -894.104 4.82976
237      85.1528 1 2 100 -894.104 2.25089
238      85.1528 1 2 100 -894.104 5.9552
239      85.1528 1 2 100 -894.104 3.37633
240      85.1528 1 2 100 -894.104 0.797462
241      85.1528 1 2 100 -862.172 0
242      85.1528 1 2 100 -862.172 4.91841
243      85.1528 1 2 100 -862.172 3.55364
244      85.1528 1 2 100 -862.172 2.18887
245      85.1528 1 2 100 -862.172 0.824103
246      85.1528 1 2 100 -862.172 5.74252
247      85.1528 1 2 100 -862.172 4.37775
248      85.1528 1 2 100 -862.172 3.01298
249      85.1528 1 2 100 -830.24 0
250      85.1528 1 2 100 -830.24 6.13251
251      85.1528 1 2 100 -830.24 5.98184
252      85.1528 1 2 100 -830.24 5.83117
253      85.1528 1 2 100 -830.24 5.6805
254      85.1528 1 2 100 -830.24 5.52983
255      85.1528 1 2 100 -830.24 5.37916
256      85.1528 1 2 100 -830.24 5.22849
257      85.1528 1 2 100 -798.308 0
258      85.1528 1 2 100 -798.308 1.06343
259      85.1528 1 2 100 -798.308 2.12686
260      85.1528 1 2 100 -798.308 3.19029
261      85.1528 1 2 100 -798.308 4.25372
262      85.1528 1 2 100 -798.308 5.31715
263      85.1528 1 2 100 -798.308 0.0973894
264      85.1528 1 2 100 -798.308 1.16082
265      85.1528 1 2 100 -766.375 0
266      85.1528 1 2 100 -766.375 2.27753
267      85.1528 1 2 100 -766.375 4.55506
268      85.1528 1 2 100 -766.375 0.549402
269      85.1528 1 2 100 -766.375 2.82693
270      85.1528 1 2 100 -766.375 5.10446
271      85.1528 1 2 100 -766.375 1.0988
272      85.1528 1 2 100 -766.375 3.37633
273      85.1528 1 2 100 -734.443 0
274      85.1528 1 2 100 -734.443 3.49163
275      85.1528 1 2 100 -734.443 0.700073
276      85.1528 1 2 100 -734.443 4.1917
277      85.1528 1 2 100 -734.443 1.40015
278      85.1528 1 2 100 -734.443 4.89177
279      85.1528 1 2 100 -734.443 2.10022
280      85.1528 1 2 100 -734.443 5.59185
281      85.1528 1 2 100 -702.511 0
282      85.1528 1 2 100 -702.511 4.70573
283      85.1528 1 2 100 -702.511 3.12827
284      85.1528 1 2 100 -702.511 1.55082
285      85.1528 1 2 100 -702.511 6.25654
286      85.1528 1 2 100 -702.511 4.67909
287      85.1528 1 2 100 -702.511 3.10163
288      85.1528 1 2 100 -702.511 1.52418
289      85.1528 1 2 100 -670.578 0
290      85.1528 1 2 100 -670.578 5.91983
291      85.1528 1 2 100 -670.578 5.55647
292      85.1528 1 2 100 -670.578 5.19312
293      85.1528 1 2 100 -670.578 4.82976
294      85.1528 1 2 100 -670.578 4.4664
295      85.1528 1 2 100 -670.578 4.10305
296      85.1528 1 2 100 -670.578 3.73969
297      85.1528 1 2 100 -638.646 0
298      85.1528 1 2 100 -638.646 0.850743
299      85.1528 1 2 100 -638.646 1.70149
300      85.1528 1 2 100 -638.646 2.55223
301      85.1528 1 2 100 -638.646 3.40297
302      85.1528 1 2 100 -638.646 4.25372
303      85.1528 1 2 100 -638.646 5.10446
304      85.1528 1 2 100 -638.646 5.9552
305      85.1528 1 2 100 -606.714 0
306      85.1528 1 2 100 -606.714 2.06484
307      85.1528 1 2 100 -606.714 4.12969
308      85.1528 1 2 100 -606.714 6.19453
309      85.1528 1 2 100 -606.714 1.97619
310      85.1528 1 2 100 -606.714 4.04103
311      85.1528 1 2 100 -606.714 6.10587
312      85.1528 1 2 100 -606.714 1.88753
313      85.1528 1 2 100 -574.781 0
314      85.1528 1 2 100 -574.781 3.27894
315      85.1528 1 2 100 -574.781 0.274701
316      85.1528 1 2 100 -574.781 3.55364
317      85.1528 1 2 100 -574.781 0.549402
318      85.1528 1 2 100 -574.781 3.82834
319      85.1528 1 2 100 -574.781 0.824103
320      85.1528 1 2 100 -574.781 4.10305
321      85.1528 1 2 100 -542.849 0
322      85.1528 1 2 100 -542.849 4.49304
323      85.1528 1 2 100 -542.849 2.7029
324      85.1528 1 2 100 -542.849 0.912758
325      85.1528 1 2 100 -542.849 5.4058
326      85.1528 1 2 100 -542.849 3.61566
327      85.1528 1 2 100 -542.849 1.82552
328      85.1528 1 2 100 -542.849 0.0353743
329      85.1528 1 2 100 -510.917 0
330      85.1528 1 2 100 -510.917 5.70714
331      85.1528 1 2 100 -510.917 5.1311
332      85.1528 1 2 100 -510.917 4.55506
333      85.1528 1 2 100 -510.917 3.97902
334      85.1528 1 2 100 -510.917 3.40297
335      85.1528 1 2 100 -510.917 2.82693
336      85.1528 1 2 100 -510.917 2.25089
337      85.1528 1 2 100 -478.984 0
338      85.1528 1 2 100 -478.984 0.638057
339      85.1528 1 2 100 -478.984 1.27611
340      85.1528 1 2 100 -478.984 1.91417
341      85.1528 1 2 100 -478.984 2.55223
342      85.1528 1 2 100 -478.984 3.19029
343      85.1528 1 2 100 -478.984 3.82834
344      85.1528 1 2 100 -478.984 4.4664
345      85.1528 1 2 100 -447.052 0
346      85.1528 1 2 100 -447.052 1.85216
347      85.1528 1 2 100 -447.052 3.70431
348      85.1528 1 2 100 -447.052 5.55647
349      85.1528 1 2 100 -447.052 1.12544
350      85.1528 1 2 100 -447.052 2.9776
351      85.1528 1 2 100 -447.052 4.82976
352      85.1528 1 2 100 -447.052 0.398731
353      85.1528 1 2 100 -415.12 0
354      85.1528 1 2 100 -415.12 3.06626
355      85.1528 1 2 100 -415.12 6.13251
356      85.1528 1 2 100 -415.12 2.91559
357      85.1528 1 2 100 -415.12 5.98184
358      85.1528 1 2 100 -415.12 2.76492
359      85.1528 1 2 100 -415.12 5.83117
360      85.1528 1 2 100 -415.12 2.61424
361      85.1528 1 2 100 -383.188 0
362      85.1528 1 2 100 -383.188 4.28036
363      85.1528 1 2 100 -383.188 2.27753
364      85.1528 1 2 100 -383.188 0.274701
365      85.1528 1 2 100 -383.188 4.55506
366      85.1528 1 2 100 -383.188 2.55223
367      85.1528 1 2 100 -383.188 0.549402
368      85.1528 1 2 100 -383.188 4.82976
369      85.1528 1 2 100 -351.255 0
370      85.1528 1 2 100 -351.255 5.49446
371      85.1528 1 2 100 -351.255 4.70573
372      85.1528 1 2 100 -351.255 3.917
373      85.1528 1 2 100 -351.255 3.12827
374      85.1528 1 2 100 -351.255 2.33954
375      85.1528 1 2 100 -351.255 1.55082
376      85.1528 1 2 100 -351.255 0.762088
377      85.1528 1 2 100 -319.323 0
378      85.1528 1 2 100 -319.323 0.425372
379      85.1528 1 2 100 -319.323 0.850743
380      85.1528 1 2 100 -319.323 1.27611
381      85.1528 1 2 100 -319.323 1.70149
382      85.1528 1 2 100 -319.323 2.12686
383      85.1528 1 2 100 -319.323 2.55223
384      85.1528 1 2 100 -319.323 2.9776
385      85.1528 1 2 100 -287.391 0
386      85.1528 1 2 100 -287.391 1.63947
387      85.1528 1 2 100 -287.391 3.27894
388      85.1528 1 2 100 -287.391 4.91841
389      85.1528 1 2 100 -287.391 0.274701
390      85.1528 1 2 100 -287.391 1.91417
391      85.1528 1 2 100 -287.391 3.55364
392      85.1528 1 2 100 -287.391 5.19312
393      85.1528 1 2 100 -255.458 0
394      85.1528 1 2 100 -255.458 2.85357
395      85.1528 1 2 100 -255.458 5.70714
396      85.1528 1 2 100 -255.458 2.27753
397      85.1528 1 2 100 -255.458 5.1311
398      85.1528 1 2 100 -255.458 1.70149
399      85.1528 1 2 100 -255.458 4.55506
400      85.1528 1 2 100 -255.458 1.12544
401      85.1528 1 2 100 -223.526 0
402      85.1528 1 2 100 -223.526 4.06767
403      85.1528 1 2 100 -223.526 1.85216
404      85.1528 1 2 100 -223.526 5.91983
405      85.1528 1 2 100 -223.526 3.70431
406      85.1528 1 2 100 -223.526 1.4888
407      85.1528 1 2 100 -223.526 5.55647
408      85.1528 1 2 100 -223.526 3.34096
409      85.1528 1 2 100 -191.594 0
410      85.1528 1 2 100 -191.594 5.28177
411      85.1528 1 2 100 -191.594 4.28036
412      85.1528 1 2 100 -191.594 3.27894
413      85.1528 1 2 100 -191.594 2.27753
414      85.1528 1 2 100 -191.594 1.27611
415      85.1528 1 2 100 -191.594 0.274701
416      85.1528 1 2 100 -191.594 5.55647
417      85.1528 1 2 100 -159.661 0
418      85.1528 1 2 100 -159.661 0.212686
419      85.1528 1 2 100 -159.661 0.425372
420      85.1528 1 2 100 -159.661 0.638057
421      85.1528 1 2 100 -159.661 0.850743
422      85.1528 1 2 100 -159.661 1.06343
423      85.1528 1 2 100 -159.661 1.27611
424      85.1528 1 2 100 -159.661 1.4888
425      85.1528 1 2 100 -127.729 0
426      85.1528 1 2 100 -127.729 1.42679
427      85.1528 1 2 100 -127.729 2.85357
428      85.1528 1 2 100 -127.729 4.28036
429      85.1528 1 2 100 -127.729 5.70714
430      85.1528 1 2 100 -127.729 0.850743
431      85.1528 1 2 100 -127.729 2.27753
432      85.1528 1 2 100 -127.729 3.70431
433      85.1528 1 2 100 -95.7969 0
434      85.1528 1 2 100 -95.7969 2.64089
435      85.1528 1 2 100 -95.7969 5.28177
436      85.1528 1 2 100 -95.7969 1.63947
437      85.1528 1 2 100 -95.7969 4.28036
438      85.1528 1 2 100 -95.7969 0.638057
439      85.1528 1 2 100 -95.7969 3.27894
440      85.1528 1 2 100 -95.7969 5.91983
441      85.1528 1 2 100 -63.8646 0
442      85.1528 1 2 100 -63.8646 3.85499
443      85.1528 1 2 100 -63.8646 1.42679
444      85.1528 1 2 100 -63.8646 5.28177
445      85.1528 1 2 100 -63.8646 2.85357
446      85.1528 1 2 100 -63.8646 0.425372
447      85.1528 1 2 100 -63.8646 4.28036
448      85.1528 1 2 100 -63.8646 1.85216
449      85.1528 1 2 100 -31.9323 0
450      85.1528 1 2 100 -31.9323 5.06909
451      85.1528 1 2 100 -31.9323 3.85499
452      85.1528 1 2 100 -31.9323 2.64089
453      85.1528 1 2 100 -31.9323 1.42679
454      85.1528 1 2 100 -31.9323 0.212686
455      85.1528 1 2 100 -31.9323 5.28177
456      85.1528 1 2 100 -31.9323 4.06767
457      85.1528 1 2 100 0 0
458      85.1528 1 2 100 31.9323 0
459      85.1528 1 2 100 31.9323 1.2141
460      85.1528 1 2 100 31.9323 2.4282
461      85.1528 1 2 100 31.9323 3.6423
462      85.1528 1 2 100 31.9323 4.8564
463      85.1528 1 2 100 31.9323 6.0705
464      85.1528 1 2 100 31.9323 1.00141
465      85.1528 1 2 100 31.9323 2.21551
466      85.1528 1 2 100 63.8646 0
467      85.1528 1 2 100 63.8646 2.4282
468      85.1528 1 2 100 63.8646 4.8564
469      85.1528 1 2 100 63.8646 1.00141
470      85.1528 1 2 100 63.8646 3.42961
471      85.1528 1 2 100 63.8646 5.85781
472      85.1528 1 2 100 63.8646 2.00283
473      85.1528 1 2 100 63.8646 4.43103
474      85.1528 1 2 100 95.7969 0
475      85.1528 1 2 100 95.7969 3.6423
476      85.1528 1 2 100 95.7969 1.00141
477      85.1528 1 2 100 95.7969 4.64371
478      85.1528 1 2 100 95.7969 2.00283
479      85.1528 1 2 100 95.7969 5.64513
480      85.1528 1 2 100 95.7969 3.00424
481      85.1528 1 2 100 95.7969 0.363357
482      85.1528 1 2 100 127.729 0
483      85.1528 1 2 100 127.729 4.8564
484      85.1528 1 2 100 127.729 3.42961
485      85.1528 1 2 100 127.729 2.00283
486      85.1528 1 2 100 127.729 0.576042
487      85.1528 1 2 100 127.729 5.43244
488      85.1528 1 2 100 127.729 4.00566
